PE UV                   SPECTRUM    ASCII       PEDS        1.60        
  -1
AULSG.SP
96/10/27
12:23:39.00
96/10/27
12:25:54.00
*.dat

320.000000
1









4444

SCAN
1
1


0.1

2.00
MANUAL



VIS




































#HDR
-1
-1
#GR
NM
A
0.00000011920928955078
0.0
700.000000
2.000000
191
8
0.996908
0.095272
#DATA
700.000000	0.095272 
698.000000	0.095517 
696.000000	0.096228 
694.000000	0.096918 
692.000000	0.097445 
690.000000	0.098076 
688.000000	0.099105 
686.000000	0.099877 
684.000000	0.100525 
682.000000	0.101527 
680.000000	0.102605 
678.000000	0.103210 
676.000000	0.104234 
674.000000	0.105658 
672.000000	0.106384 
670.000000	0.107625 
668.000000	0.108869 
666.000000	0.110162 
664.000000	0.111347 
662.000000	0.112835 
660.000000	0.114330 
658.000000	0.115207 
656.000000	0.117098 
654.000000	0.118784 
652.000000	0.119912 
650.000000	0.121500 
648.000000	0.123892 
646.000000	0.125749 
644.000000	0.127463 
642.000000	0.129712 
640.000000	0.132025 
638.000000	0.134208 
636.000000	0.136421 
634.000000	0.139169 
632.000000	0.142131 
630.000000	0.144794 
628.000000	0.147472 
626.000000	0.150627 
624.000000	0.153977 
622.000000	0.157439 
620.000000	0.160977 
618.000000	0.165068 
616.000000	0.169048 
614.000000	0.173264 
612.000000	0.178006 
610.000000	0.182792 
608.000000	0.187710 
606.000000	0.193098 
604.000000	0.199110 
602.000000	0.204937 
600.000000	0.211383 
598.000000	0.218157 
596.000000	0.225047 
594.000000	0.233016 
592.000000	0.241495 
590.000000	0.250288 
588.000000	0.259775 
586.000000	0.269799 
584.000000	0.280446 
582.000000	0.291982 
580.000000	0.304531 
578.000000	0.317632 
576.000000	0.331596 
574.000000	0.346813 
572.000000	0.363010 
570.000000	0.380418 
568.000000	0.399030 
566.000000	0.418405 
564.000000	0.439072 
562.000000	0.461594 
560.000000	0.485089 
558.000000	0.510340 
556.000000	0.536572 
554.000000	0.564594 
552.000000	0.593631 
550.000000	0.623650 
548.000000	0.654868 
546.000000	0.686993 
544.000000	0.719072 
542.000000	0.750868 
540.000000	0.783474 
538.000000	0.815004 
536.000000	0.845437 
534.000000	0.874215 
532.000000	0.901105 
530.000000	0.925407 
528.000000	0.946100 
526.000000	0.963057 
524.000000	0.976351 
522.000000	0.986150 
520.000000	0.991186 
518.000000	0.991800 
516.000000	0.989091 
514.000000	0.982421 
512.000000	0.971729 
510.000000	0.958285 
508.000000	0.942915 
506.000000	0.925629 
504.000000	0.906371 
502.000000	0.886301 
500.000000	0.866067 
498.000000	0.845678 
496.000000	0.825301 
494.000000	0.805502 
492.000000	0.786685 
490.000000	0.769057 
488.000000	0.752427 
486.000000	0.737339 
484.000000	0.723478 
482.000000	0.710502 
480.000000	0.698766 
478.000000	0.688083 
476.000000	0.678387 
474.000000	0.669839 
472.000000	0.662249 
470.000000	0.655338 
468.000000	0.649155 
466.000000	0.643758 
464.000000	0.639054 
462.000000	0.634691 
460.000000	0.630778 
458.000000	0.627513 
456.000000	0.624725 
454.000000	0.622363 
452.000000	0.620176 
450.000000	0.618232 
448.000000	0.616901 
446.000000	0.615687 
444.000000	0.614437 
442.000000	0.613760 
440.000000	0.613523 
438.000000	0.613113 
436.000000	0.612908 
434.000000	0.613218 
432.000000	0.613620 
430.000000	0.614058 
428.000000	0.614548 
426.000000	0.615257 
424.000000	0.616399 
422.000000	0.617542 
420.000000	0.618649 
418.000000	0.620112 
416.000000	0.621873 
414.000000	0.623597 
412.000000	0.625194 
410.000000	0.627139 
408.000000	0.629402 
406.000000	0.631822 
404.000000	0.634331 
402.000000	0.636814 
400.000000	0.639743 
398.000000	0.642611 
396.000000	0.645581 
394.000000	0.648565 
392.000000	0.652001 
390.000000	0.655604 
388.000000	0.659109 
386.000000	0.662794 
384.000000	0.666919 
382.000000	0.671703 
380.000000	0.677078 
378.000000	0.683450 
376.000000	0.692329 
374.000000	0.703411 
372.000000	0.717745 
370.000000	0.734416 
368.000000	0.751561 
366.000000	0.767546 
364.000000	0.781720 
362.000000	0.794139 
360.000000	0.804858 
358.000000	0.813838 
356.000000	0.821122 
354.000000	0.826826 
352.000000	0.832068 
350.000000	0.836571 
348.000000	0.841111 
346.000000	0.846422 
344.000000	0.851695 
342.000000	0.857787 
340.000000	0.865375 
338.000000	0.873575 
336.000000	0.884074 
334.000000	0.897732 
332.000000	0.911855 
330.000000	0.926068 
328.000000	0.939457 
326.000000	0.951259 
324.000000	0.964371 
322.000000	0.979735 
320.000000	0.996908 

