PE UV                   SPECTRUM    ASCII       PEDS        1.60        
  -1
PEI.SP
96/10/27
12:31:46.00
96/10/27
12:34:33.00
*.dat

320.000000
1









4444

SCAN
1
1


0.1

2.00
MANUAL



VIS




































#HDR
-1
-1
#GR
NM
A
0.00000011920928955078
0.0
700.000000
2.000000
191
8
0.457966
0.126816
#DATA
700.000000	0.127172 
698.000000	0.126816 
696.000000	0.126900 
694.000000	0.127043 
692.000000	0.126950 
690.000000	0.127195 
688.000000	0.127207 
686.000000	0.127337 
684.000000	0.127011 
682.000000	0.126923 
680.000000	0.127170 
678.000000	0.127090 
676.000000	0.127282 
674.000000	0.127486 
672.000000	0.127329 
670.000000	0.127351 
668.000000	0.127469 
666.000000	0.127295 
664.000000	0.127402 
662.000000	0.127662 
660.000000	0.127767 
658.000000	0.127663 
656.000000	0.127903 
654.000000	0.127737 
652.000000	0.127559 
650.000000	0.127715 
648.000000	0.128169 
646.000000	0.128206 
644.000000	0.128063 
642.000000	0.127916 
640.000000	0.128197 
638.000000	0.128255 
636.000000	0.128335 
634.000000	0.128592 
632.000000	0.128822 
630.000000	0.128595 
628.000000	0.128450 
626.000000	0.128648 
624.000000	0.128751 
622.000000	0.128771 
620.000000	0.128727 
618.000000	0.129018 
616.000000	0.128938 
614.000000	0.128840 
612.000000	0.129324 
610.000000	0.129502 
608.000000	0.129455 
606.000000	0.129422 
604.000000	0.129601 
602.000000	0.129410 
600.000000	0.129618 
598.000000	0.129791 
596.000000	0.129577 
594.000000	0.129715 
592.000000	0.129929 
590.000000	0.129842 
588.000000	0.129941 
586.000000	0.130206 
584.000000	0.130185 
582.000000	0.129950 
580.000000	0.130092 
578.000000	0.130121 
576.000000	0.130121 
574.000000	0.130169 
572.000000	0.130290 
570.000000	0.130117 
568.000000	0.130319 
566.000000	0.130388 
564.000000	0.130429 
562.000000	0.130571 
560.000000	0.130675 
558.000000	0.130855 
556.000000	0.130675 
554.000000	0.130638 
552.000000	0.130972 
550.000000	0.131063 
548.000000	0.131014 
546.000000	0.131083 
544.000000	0.131118 
542.000000	0.131230 
540.000000	0.131468 
538.000000	0.131399 
536.000000	0.131587 
534.000000	0.131794 
532.000000	0.131780 
530.000000	0.131738 
528.000000	0.132023 
526.000000	0.132192 
524.000000	0.132179 
522.000000	0.132423 
520.000000	0.132516 
518.000000	0.132562 
516.000000	0.132956 
514.000000	0.133041 
512.000000	0.132883 
510.000000	0.133068 
508.000000	0.133386 
506.000000	0.133561 
504.000000	0.133451 
502.000000	0.133395 
500.000000	0.133447 
498.000000	0.133442 
496.000000	0.133478 
494.000000	0.133362 
492.000000	0.133113 
490.000000	0.133065 
488.000000	0.133280 
486.000000	0.133422 
484.000000	0.133427 
482.000000	0.133595 
480.000000	0.133955 
478.000000	0.134177 
476.000000	0.134152 
474.000000	0.134385 
472.000000	0.134775 
470.000000	0.135067 
468.000000	0.135112 
466.000000	0.135098 
464.000000	0.135339 
462.000000	0.135575 
460.000000	0.135729 
458.000000	0.135792 
456.000000	0.135789 
454.000000	0.136012 
452.000000	0.136091 
450.000000	0.135803 
448.000000	0.136005 
446.000000	0.136290 
444.000000	0.136247 
442.000000	0.136201 
440.000000	0.136395 
438.000000	0.136568 
436.000000	0.136656 
434.000000	0.136869 
432.000000	0.137040 
430.000000	0.137359 
428.000000	0.137514 
426.000000	0.137469 
424.000000	0.137738 
422.000000	0.138095 
420.000000	0.138417 
418.000000	0.138637 
416.000000	0.138792 
414.000000	0.139071 
412.000000	0.139348 
410.000000	0.139782 
408.000000	0.139970 
406.000000	0.140150 
404.000000	0.140557 
402.000000	0.141053 
400.000000	0.141480 
398.000000	0.141682 
396.000000	0.142311 
394.000000	0.143064 
392.000000	0.143610 
390.000000	0.144393 
388.000000	0.145288 
386.000000	0.146415 
384.000000	0.147799 
382.000000	0.149687 
380.000000	0.152229 
378.000000	0.155654 
376.000000	0.160820 
374.000000	0.168865 
372.000000	0.180310 
370.000000	0.194832 
368.000000	0.210118 
366.000000	0.223786 
364.000000	0.235875 
362.000000	0.246210 
360.000000	0.254814 
358.000000	0.262088 
356.000000	0.268041 
354.000000	0.272892 
352.000000	0.277526 
350.000000	0.281296 
348.000000	0.285236 
346.000000	0.289912 
344.000000	0.294958 
342.000000	0.300861 
340.000000	0.307881 
338.000000	0.316621 
336.000000	0.327521 
334.000000	0.341022 
332.000000	0.356017 
330.000000	0.370989 
328.000000	0.385502 
326.000000	0.400230 
324.000000	0.416526 
322.000000	0.435674 
320.000000	0.457966 

