PE UV                   SPECTRUM    ASCII       PEDS        1.60        
  -1
PEIAUNI.SP
96/10/27
13:26:52.00
96/10/27
13:29:29.00
*.dat

320.000000
1









4444

SCAN
1
1


0.1

2.00
MANUAL



VIS




































#HDR
-1
-1
#GR
NM
A
0.00000011920928955078
0.0
700.000000
2.000000
191
8
300.000000
0.084546
#DATA
700.000000	0.085294   
698.000000	0.085220   
696.000000	0.085435   
694.000000	0.085367   
692.000000	0.085244   
690.000000	0.085214   
688.000000	0.085351   
686.000000	0.085342   
684.000000	0.084983   
682.000000	0.084820   
680.000000	0.085075   
678.000000	0.084992   
676.000000	0.084767   
674.000000	0.085031   
672.000000	0.084973   
670.000000	0.084897   
668.000000	0.084995   
666.000000	0.084707   
664.000000	0.084681   
662.000000	0.084829   
660.000000	0.084686   
658.000000	0.084546   
656.000000	0.084758   
654.000000	0.084917   
652.000000	0.084756   
650.000000	0.084703   
648.000000	0.084965   
646.000000	0.085070   
644.000000	0.085004   
642.000000	0.084930   
640.000000	0.084862   
638.000000	0.084858   
636.000000	0.084793   
634.000000	0.084882   
632.000000	0.085168   
630.000000	0.085180   
628.000000	0.085335   
626.000000	0.085563   
624.000000	0.085578   
622.000000	0.085534   
620.000000	0.085492   
618.000000	0.085887   
616.000000	0.085888   
614.000000	0.085945   
612.000000	0.086211   
610.000000	0.086507   
608.000000	0.086602   
606.000000	0.086724   
604.000000	0.087033   
602.000000	0.086974   
600.000000	0.087279   
598.000000	0.087365   
596.000000	0.087388   
594.000000	0.087748   
592.000000	0.088346   
590.000000	0.088654   
588.000000	0.089208   
586.000000	0.089652   
584.000000	0.089851   
582.000000	0.090290   
580.000000	0.091002   
578.000000	0.091556   
576.000000	0.092278   
574.000000	0.093157   
572.000000	0.093755   
570.000000	0.094303   
568.000000	0.095366   
566.000000	0.096299   
564.000000	0.097266   
562.000000	0.098649   
560.000000	0.099749   
558.000000	0.101079   
556.000000	0.102017   
554.000000	0.103188   
552.000000	0.104599   
550.000000	0.105738   
548.000000	0.107018   
546.000000	0.108483   
544.000000	0.109732   
542.000000	0.110745   
540.000000	0.111890   
538.000000	0.112743   
536.000000	0.113533   
534.000000	0.114251   
532.000000	0.114769   
530.000000	0.115216   
528.000000	0.115566   
526.000000	0.115409   
524.000000	0.114916   
522.000000	0.114617   
520.000000	0.114061   
518.000000	0.113277   
516.000000	0.112742   
514.000000	0.111963   
512.000000	0.110854   
510.000000	0.109862   
508.000000	0.108915   
506.000000	0.107772   
504.000000	0.106431   
502.000000	0.105275   
500.000000	0.104319   
498.000000	0.103267   
496.000000	0.102295   
494.000000	0.101452   
492.000000	0.100715   
490.000000	0.100055   
488.000000	0.099399   
486.000000	0.098712   
484.000000	0.098111   
482.000000	0.097880   
480.000000	0.097662   
478.000000	0.097293   
476.000000	0.096871   
474.000000	0.096688   
472.000000	0.096520   
470.000000	0.096218   
468.000000	0.096121   
466.000000	0.096211   
464.000000	0.096211   
462.000000	0.096030   
460.000000	0.096029   
458.000000	0.096224   
456.000000	0.096324   
454.000000	0.096485   
452.000000	0.096646   
450.000000	0.096566   
448.000000	0.096775   
446.000000	0.097085   
444.000000	0.097280   
442.000000	0.097555   
440.000000	0.097830   
438.000000	0.097927   
436.000000	0.098094   
434.000000	0.098377   
432.000000	0.098644   
430.000000	0.099024   
428.000000	0.099441   
426.000000	0.100030   
424.000000	0.100937   
422.000000	0.101772   
420.000000	0.102814   
418.000000	0.104199   
416.000000	0.106156   
414.000000	0.108846   
412.000000	0.112278   
410.000000	0.116960   
408.000000	0.122958   
406.000000	0.130676   
404.000000	0.140621   
402.000000	0.153230   
400.000000	0.169007   
398.000000	0.188430   
396.000000	0.213167   
394.000000	0.244326   
392.000000	0.284089   
390.000000	0.335210   
388.000000	0.402317   
386.000000	0.492395   
384.000000	0.611903   
382.000000	0.766723   
380.000000	0.961345   
378.000000	1.203471   
376.000000	1.514672   
374.000000	1.889946   
372.000000	2.323772   
370.000000	2.825065   
368.000000	3.382079   
366.000000	4.658655   
364.000000	300.000000 
362.000000	300.000000 
360.000000	300.000000 
358.000000	300.000000 
356.000000	300.000000 
354.000000	300.000000 
352.000000	300.000000 
350.000000	300.000000 
348.000000	4.730738   
346.000000	300.000000 
344.000000	300.000000 
342.000000	300.000000 
340.000000	300.000000 
338.000000	300.000000 
336.000000	4.727458   
334.000000	300.000000 
332.000000	300.000000 
330.000000	300.000000 
328.000000	300.000000 
326.000000	300.000000 
324.000000	300.000000 
322.000000	4.526382   
320.000000	300.000000 

