PE UV                   SPECTRUM    ASCII       PEDS        1.60        
  -1
PEIAUAIR.SP
96/10/27
13:48:00.00
96/10/27
13:53:11.00
*.dat

320.000000
1









4444

SCAN
1
1


0.1

2.00
MANUAL



VIS




































#HDR
-1
-1
#GR
NM
A
0.00000011920928955078
0.0
700.000000
2.000000
191
8
0.525806
0.176520
#DATA
700.000000	0.176588 
698.000000	0.176520 
696.000000	0.176729 
694.000000	0.176935 
692.000000	0.177198 
690.000000	0.177717 
688.000000	0.177849 
686.000000	0.178272 
684.000000	0.178307 
682.000000	0.178427 
680.000000	0.178782 
678.000000	0.178846 
676.000000	0.178940 
674.000000	0.179394 
672.000000	0.179631 
670.000000	0.179882 
668.000000	0.179984 
666.000000	0.179952 
664.000000	0.180121 
662.000000	0.180563 
660.000000	0.180707 
658.000000	0.180797 
656.000000	0.181027 
654.000000	0.181070 
652.000000	0.181011 
650.000000	0.181250 
648.000000	0.181779 
646.000000	0.181811 
644.000000	0.181689 
642.000000	0.181737 
640.000000	0.181894 
638.000000	0.182018 
636.000000	0.182277 
634.000000	0.182438 
632.000000	0.182749 
630.000000	0.182678 
628.000000	0.182630 
626.000000	0.182676 
624.000000	0.182764 
622.000000	0.182734 
620.000000	0.182618 
618.000000	0.183237 
616.000000	0.183251 
614.000000	0.183242 
612.000000	0.183480 
610.000000	0.183636 
608.000000	0.183403 
606.000000	0.183318 
604.000000	0.183623 
602.000000	0.183547 
600.000000	0.183670 
598.000000	0.183690 
596.000000	0.183378 
594.000000	0.183376 
592.000000	0.183540 
590.000000	0.183580 
588.000000	0.183646 
586.000000	0.183819 
584.000000	0.183781 
582.000000	0.183737 
580.000000	0.183866 
578.000000	0.183735 
576.000000	0.183785 
574.000000	0.184033 
572.000000	0.184183 
570.000000	0.184302 
568.000000	0.184961 
566.000000	0.185301 
564.000000	0.185548 
562.000000	0.186039 
560.000000	0.186523 
558.000000	0.187250 
556.000000	0.187692 
554.000000	0.188505 
552.000000	0.189547 
550.000000	0.190316 
548.000000	0.191296 
546.000000	0.192380 
544.000000	0.193393 
542.000000	0.194269 
540.000000	0.195578 
538.000000	0.196636 
536.000000	0.197795 
534.000000	0.199004 
532.000000	0.200157 
530.000000	0.201399 
528.000000	0.202689 
526.000000	0.203728 
524.000000	0.204476 
522.000000	0.205492 
520.000000	0.206182 
518.000000	0.206485 
516.000000	0.206884 
514.000000	0.207037 
512.000000	0.206830 
510.000000	0.206674 
508.000000	0.206485 
506.000000	0.205981 
504.000000	0.205070 
502.000000	0.204136 
500.000000	0.203232 
498.000000	0.202144 
496.000000	0.201139 
494.000000	0.200096 
492.000000	0.198946 
490.000000	0.197912 
488.000000	0.197002 
486.000000	0.196256 
484.000000	0.195569 
482.000000	0.195080 
480.000000	0.194601 
478.000000	0.194000 
476.000000	0.193589 
474.000000	0.193422 
472.000000	0.193232 
470.000000	0.192978 
468.000000	0.192873 
466.000000	0.192871 
464.000000	0.192808 
462.000000	0.192657 
460.000000	0.192614 
458.000000	0.192577 
456.000000	0.192405 
454.000000	0.192497 
452.000000	0.192714 
450.000000	0.192678 
448.000000	0.192774 
446.000000	0.192825 
444.000000	0.192740 
442.000000	0.192954 
440.000000	0.193342 
438.000000	0.193520 
436.000000	0.193754 
434.000000	0.194012 
432.000000	0.194156 
430.000000	0.194474 
428.000000	0.194755 
426.000000	0.195118 
424.000000	0.195693 
422.000000	0.196156 
420.000000	0.196382 
418.000000	0.196624 
416.000000	0.197056 
414.000000	0.197592 
412.000000	0.198003 
410.000000	0.198460 
408.000000	0.198854 
406.000000	0.199437 
404.000000	0.200196 
402.000000	0.200698 
400.000000	0.201200 
398.000000	0.201810 
396.000000	0.202750 
394.000000	0.203591 
392.000000	0.204443 
390.000000	0.205496 
388.000000	0.206560 
386.000000	0.207819 
384.000000	0.209428 
382.000000	0.211330 
380.000000	0.213871 
378.000000	0.217338 
376.000000	0.222234 
374.000000	0.230215 
372.000000	0.242053 
370.000000	0.257208 
368.000000	0.272542 
366.000000	0.286330 
364.000000	0.298366 
362.000000	0.309193 
360.000000	0.317825 
358.000000	0.324912 
356.000000	0.330600 
354.000000	0.335247 
352.000000	0.339975 
350.000000	0.344265 
348.000000	0.348218 
346.000000	0.352953 
344.000000	0.358318 
342.000000	0.364548 
340.000000	0.372220 
338.000000	0.381117 
336.000000	0.391874 
334.000000	0.405680 
332.000000	0.420753 
330.000000	0.436507 
328.000000	0.451563 
326.000000	0.466412 
324.000000	0.483217 
322.000000	0.502678 
320.000000	0.525806 

