PE UV                   SPECTRUM    ASCII       PEDS        1.60        
  -1
PEIAUTOL.SP
96/10/27
13:18:28.00
96/10/27
13:20:55.00
*.dat

320.000000
1









4444

SCAN
1
1


0.1

2.00
MANUAL



VIS




































#HDR
-1
-1
#GR
NM
A
0.00000011920928955078
0.0
700.000000
2.000000
191
8
0.289982
0.104961
#DATA
700.000000	0.105195 
698.000000	0.105129 
696.000000	0.105362 
694.000000	0.105237 
692.000000	0.104961 
690.000000	0.105304 
688.000000	0.105451 
686.000000	0.105764 
684.000000	0.105639 
682.000000	0.105645 
680.000000	0.105880 
678.000000	0.105974 
676.000000	0.106094 
674.000000	0.106603 
672.000000	0.106622 
670.000000	0.106739 
668.000000	0.106971 
666.000000	0.107299 
664.000000	0.107484 
662.000000	0.107929 
660.000000	0.107931 
658.000000	0.107934 
656.000000	0.108434 
654.000000	0.108779 
652.000000	0.108979 
650.000000	0.109210 
648.000000	0.109854 
646.000000	0.110098 
644.000000	0.110395 
642.000000	0.110828 
640.000000	0.111131 
638.000000	0.111424 
636.000000	0.111563 
634.000000	0.112104 
632.000000	0.112480 
630.000000	0.112739 
628.000000	0.113074 
626.000000	0.113518 
624.000000	0.113874 
622.000000	0.114121 
620.000000	0.114425 
618.000000	0.115250 
616.000000	0.115622 
614.000000	0.116088 
612.000000	0.116892 
610.000000	0.117403 
608.000000	0.117720 
606.000000	0.118210 
604.000000	0.118981 
602.000000	0.119538 
600.000000	0.120531 
598.000000	0.121326 
596.000000	0.121863 
594.000000	0.122891 
592.000000	0.124338 
590.000000	0.125618 
588.000000	0.127001 
586.000000	0.128467 
584.000000	0.129736 
582.000000	0.131239 
580.000000	0.133189 
578.000000	0.135222 
576.000000	0.137309 
574.000000	0.139607 
572.000000	0.141782 
570.000000	0.144053 
568.000000	0.146881 
566.000000	0.149706 
564.000000	0.152467 
562.000000	0.155440 
560.000000	0.158234 
558.000000	0.161052 
556.000000	0.163726 
554.000000	0.166675 
552.000000	0.169517 
550.000000	0.171911 
548.000000	0.174185 
546.000000	0.176366 
544.000000	0.178305 
542.000000	0.179848 
540.000000	0.181360 
538.000000	0.182128 
536.000000	0.182593 
534.000000	0.182767 
532.000000	0.182437 
530.000000	0.181907 
528.000000	0.181288 
526.000000	0.180013 
524.000000	0.178194 
522.000000	0.176576 
520.000000	0.174713 
518.000000	0.172591 
516.000000	0.170687 
514.000000	0.168452 
512.000000	0.165746 
510.000000	0.163238 
508.000000	0.160955 
506.000000	0.158610 
504.000000	0.156224 
502.000000	0.154211 
500.000000	0.152301 
498.000000	0.150266 
496.000000	0.148383 
494.000000	0.146605 
492.000000	0.145118 
490.000000	0.144003 
488.000000	0.142804 
486.000000	0.141579 
484.000000	0.140692 
482.000000	0.140022 
480.000000	0.139278 
478.000000	0.138536 
476.000000	0.138094 
474.000000	0.137940 
472.000000	0.137677 
470.000000	0.137234 
468.000000	0.136914 
466.000000	0.136903 
464.000000	0.136981 
462.000000	0.137079 
460.000000	0.137236 
458.000000	0.137265 
456.000000	0.137256 
454.000000	0.137547 
452.000000	0.137858 
450.000000	0.137934 
448.000000	0.138322 
446.000000	0.138704 
444.000000	0.138746 
442.000000	0.138942 
440.000000	0.139423 
438.000000	0.139789 
436.000000	0.140085 
434.000000	0.140430 
432.000000	0.140724 
430.000000	0.141207 
428.000000	0.141634 
426.000000	0.141839 
424.000000	0.142187 
422.000000	0.142555 
420.000000	0.143069 
418.000000	0.143570 
416.000000	0.143976 
414.000000	0.144352 
412.000000	0.144708 
410.000000	0.145432 
408.000000	0.145992 
406.000000	0.146347 
404.000000	0.146895 
402.000000	0.147501 
400.000000	0.148062 
398.000000	0.148433 
396.000000	0.149206 
394.000000	0.150144 
392.000000	0.150848 
390.000000	0.151588 
388.000000	0.152368 
386.000000	0.153320 
384.000000	0.154391 
382.000000	0.155140 
380.000000	0.155800 
378.000000	0.156458 
376.000000	0.157251 
374.000000	0.157841 
372.000000	0.158129 
370.000000	0.158895 
368.000000	0.159975 
366.000000	0.160835 
364.000000	0.162138 
362.000000	0.163420 
360.000000	0.164355 
358.000000	0.165812 
356.000000	0.167329 
354.000000	0.169191 
352.000000	0.171980 
350.000000	0.174939 
348.000000	0.177790 
346.000000	0.180938 
344.000000	0.184246 
342.000000	0.188087 
340.000000	0.192760 
338.000000	0.198154 
336.000000	0.203883 
334.000000	0.210118 
332.000000	0.217234 
330.000000	0.225582 
328.000000	0.235489 
326.000000	0.246334 
324.000000	0.258906 
322.000000	0.273262 
320.000000	0.289982 

