PE UV                   SPECTRUM    ASCII       PEDS        1.60        
  -1
PEIAUBR.SP
96/10/27
13:34:53.00
96/10/27
13:39:47.00
*.dat

320.000000
1









4444

SCAN
1
1


0.1

2.00
MANUAL



VIS




































#HDR
-1
-1
#GR
NM
A
0.00000011920928955078
0.0
700.000000
2.000000
191
8
1.171675
0.094534
#DATA
700.000000	0.095069 
698.000000	0.094574 
696.000000	0.094534 
694.000000	0.094790 
692.000000	0.094658 
690.000000	0.094743 
688.000000	0.094685 
686.000000	0.095063 
684.000000	0.095386 
682.000000	0.095714 
680.000000	0.095993 
678.000000	0.096113 
676.000000	0.096190 
674.000000	0.096690 
672.000000	0.096748 
670.000000	0.096749 
668.000000	0.096863 
666.000000	0.096745 
664.000000	0.096861 
662.000000	0.097267 
660.000000	0.097644 
658.000000	0.097507 
656.000000	0.098136 
654.000000	0.098242 
652.000000	0.098318 
650.000000	0.098682 
648.000000	0.099320 
646.000000	0.099700 
644.000000	0.099987 
642.000000	0.100450 
640.000000	0.100801 
638.000000	0.100958 
636.000000	0.101243 
634.000000	0.101899 
632.000000	0.102628 
630.000000	0.103027 
628.000000	0.103332 
626.000000	0.103810 
624.000000	0.104394 
622.000000	0.104870 
620.000000	0.105438 
618.000000	0.106578 
616.000000	0.107140 
614.000000	0.107550 
612.000000	0.108474 
610.000000	0.109483 
608.000000	0.110346 
606.000000	0.111361 
604.000000	0.112733 
602.000000	0.113715 
600.000000	0.114750 
598.000000	0.115704 
596.000000	0.116849 
594.000000	0.118319 
592.000000	0.119849 
590.000000	0.121385 
588.000000	0.123272 
586.000000	0.124990 
584.000000	0.126579 
582.000000	0.128460 
580.000000	0.130818 
578.000000	0.132775 
576.000000	0.134818 
574.000000	0.137068 
572.000000	0.139326 
570.000000	0.141661 
568.000000	0.144332 
566.000000	0.146593 
564.000000	0.148646 
562.000000	0.151171 
560.000000	0.153562 
558.000000	0.156044 
556.000000	0.157976 
554.000000	0.159923 
552.000000	0.161763 
550.000000	0.163234 
548.000000	0.164699 
546.000000	0.166080 
544.000000	0.167015 
542.000000	0.167457 
540.000000	0.167998 
538.000000	0.167999 
536.000000	0.167807 
534.000000	0.167454 
532.000000	0.166846 
530.000000	0.165947 
528.000000	0.164868 
526.000000	0.163265 
524.000000	0.161530 
522.000000	0.159900 
520.000000	0.157765 
518.000000	0.155467 
516.000000	0.153477 
514.000000	0.151286 
512.000000	0.148800 
510.000000	0.146571 
508.000000	0.144421 
506.000000	0.142276 
504.000000	0.140049 
502.000000	0.137952 
500.000000	0.136020 
498.000000	0.134215 
496.000000	0.132558 
494.000000	0.131006 
492.000000	0.129537 
490.000000	0.128409 
488.000000	0.127504 
486.000000	0.126459 
484.000000	0.125464 
482.000000	0.124775 
480.000000	0.124125 
478.000000	0.123475 
476.000000	0.123012 
474.000000	0.122786 
472.000000	0.122659 
470.000000	0.122479 
468.000000	0.122356 
466.000000	0.122272 
464.000000	0.122204 
462.000000	0.122083 
460.000000	0.122151 
458.000000	0.122326 
456.000000	0.122463 
454.000000	0.122802 
452.000000	0.123125 
450.000000	0.123264 
448.000000	0.123689 
446.000000	0.124125 
444.000000	0.124235 
442.000000	0.124529 
440.000000	0.125074 
438.000000	0.125425 
436.000000	0.125811 
434.000000	0.126221 
432.000000	0.126328 
430.000000	0.126681 
428.000000	0.127228 
426.000000	0.127712 
424.000000	0.128240 
422.000000	0.128641 
420.000000	0.129112 
418.000000	0.129690 
416.000000	0.130392 
414.000000	0.131094 
412.000000	0.131504 
410.000000	0.132051 
408.000000	0.132585 
406.000000	0.133288 
404.000000	0.134170 
402.000000	0.134794 
400.000000	0.135465 
398.000000	0.136241 
396.000000	0.137541 
394.000000	0.138848 
392.000000	0.140110 
390.000000	0.141442 
388.000000	0.142800 
386.000000	0.144285 
384.000000	0.146174 
382.000000	0.148099 
380.000000	0.150154 
378.000000	0.152250 
376.000000	0.154313 
374.000000	0.156741 
372.000000	0.159194 
370.000000	0.163034 
368.000000	0.168411 
366.000000	0.175013 
364.000000	0.184307 
362.000000	0.197611 
360.000000	0.216622 
358.000000	0.243972 
356.000000	0.282060 
354.000000	0.330597 
352.000000	0.386947 
350.000000	0.445932 
348.000000	0.498515 
346.000000	0.550419 
344.000000	0.614314 
342.000000	0.687958 
340.000000	0.752920 
338.000000	0.810335 
336.000000	0.859991 
334.000000	0.910717 
332.000000	0.970123 
330.000000	1.018338 
328.000000	1.050311 
326.000000	1.077551 
324.000000	1.107016 
322.000000	1.142964 
320.000000	1.171675 

