PE UV                   SPECTRUM    ASCII       PEDS        1.60        
  -1
PEINI.SP
96/10/27
13:30:00.00
96/10/27
13:34:31.00
*.dat

320.000000
1









4444

SCAN
1
1


0.1

2.00
MANUAL



VIS




































#HDR
-1
-1
#GR
NM
A
0.00000011920928955078
0.0
700.000000
2.000000
191
8
300.000000
0.048050
#DATA
700.000000	0.048532   
698.000000	0.048225   
696.000000	0.048209   
694.000000	0.048355   
692.000000	0.048348   
690.000000	0.048413   
688.000000	0.048137   
686.000000	0.048221   
684.000000	0.048134   
682.000000	0.048230   
680.000000	0.048429   
678.000000	0.048448   
676.000000	0.048270   
674.000000	0.048479   
672.000000	0.048157   
670.000000	0.048050   
668.000000	0.048350   
666.000000	0.048315   
664.000000	0.048338   
662.000000	0.048566   
660.000000	0.048412   
658.000000	0.048175   
656.000000	0.048389   
654.000000	0.048494   
652.000000	0.048304   
650.000000	0.048414   
648.000000	0.048580   
646.000000	0.048646   
644.000000	0.048248   
642.000000	0.048266   
640.000000	0.048482   
638.000000	0.048331   
636.000000	0.048378   
634.000000	0.048598   
632.000000	0.048670   
630.000000	0.048560   
628.000000	0.048504   
626.000000	0.048478   
624.000000	0.048560   
622.000000	0.048536   
620.000000	0.048544   
618.000000	0.048670   
616.000000	0.048598   
614.000000	0.048640   
612.000000	0.048958   
610.000000	0.049017   
608.000000	0.048805   
606.000000	0.048707   
604.000000	0.048897   
602.000000	0.048775   
600.000000	0.049072   
598.000000	0.049139   
596.000000	0.048715   
594.000000	0.048707   
592.000000	0.048993   
590.000000	0.049098   
588.000000	0.049268   
586.000000	0.049230   
584.000000	0.049047   
582.000000	0.048915   
580.000000	0.049202   
578.000000	0.049066   
576.000000	0.049052   
574.000000	0.049090   
572.000000	0.049058   
570.000000	0.049023   
568.000000	0.049308   
566.000000	0.049267   
564.000000	0.049099   
562.000000	0.049353   
560.000000	0.049357   
558.000000	0.049401   
556.000000	0.049181   
554.000000	0.049230   
552.000000	0.049340   
550.000000	0.049076   
548.000000	0.049079   
546.000000	0.049304   
544.000000	0.049401   
542.000000	0.049360   
540.000000	0.049573   
538.000000	0.049433   
536.000000	0.049350   
534.000000	0.049398   
532.000000	0.049366   
530.000000	0.049447   
528.000000	0.049692   
526.000000	0.049653   
524.000000	0.049406   
522.000000	0.049500   
520.000000	0.049461   
518.000000	0.049338   
516.000000	0.049528   
514.000000	0.049687   
512.000000	0.049666   
510.000000	0.049861   
508.000000	0.050010   
506.000000	0.049935   
504.000000	0.049747   
502.000000	0.049819   
500.000000	0.050085   
498.000000	0.050217   
496.000000	0.050301   
494.000000	0.050291   
492.000000	0.050195   
490.000000	0.050236   
488.000000	0.050330   
486.000000	0.050450   
484.000000	0.050654   
482.000000	0.050890   
480.000000	0.050882   
478.000000	0.050759   
476.000000	0.050741   
474.000000	0.050924   
472.000000	0.051094   
470.000000	0.051193   
468.000000	0.051334   
466.000000	0.051399   
464.000000	0.051406   
462.000000	0.051370   
460.000000	0.051545   
458.000000	0.051731   
456.000000	0.051787   
454.000000	0.052084   
452.000000	0.052337   
450.000000	0.052247   
448.000000	0.052382   
446.000000	0.052625   
444.000000	0.052760   
442.000000	0.053024   
440.000000	0.053273   
438.000000	0.053197   
436.000000	0.053265   
434.000000	0.053671   
432.000000	0.053966   
430.000000	0.054257   
428.000000	0.054553   
426.000000	0.054869   
424.000000	0.055485   
422.000000	0.056341   
420.000000	0.057378   
418.000000	0.058785   
416.000000	0.060703   
414.000000	0.063156   
412.000000	0.066295   
410.000000	0.070799   
408.000000	0.076730   
406.000000	0.084432   
404.000000	0.094431   
402.000000	0.106972   
400.000000	0.122496   
398.000000	0.141811   
396.000000	0.166402   
394.000000	0.197511   
392.000000	0.237238   
390.000000	0.288387   
388.000000	0.355792   
386.000000	0.445990   
384.000000	0.565736   
382.000000	0.720719   
380.000000	0.915572   
378.000000	1.157466   
376.000000	1.468889   
374.000000	1.845148   
372.000000	2.276342   
370.000000	2.773517   
368.000000	3.320544   
366.000000	4.052274   
364.000000	300.000000 
362.000000	300.000000 
360.000000	300.000000 
358.000000	300.000000 
356.000000	300.000000 
354.000000	300.000000 
352.000000	4.908178   
350.000000	300.000000 
348.000000	300.000000 
346.000000	300.000000 
344.000000	300.000000 
342.000000	300.000000 
340.000000	5.272684   
338.000000	300.000000 
336.000000	300.000000 
334.000000	300.000000 
332.000000	300.000000 
330.000000	300.000000 
328.000000	300.000000 
326.000000	300.000000 
324.000000	300.000000 
322.000000	4.476694   
320.000000	300.000000 

