PE UV                   SPECTRUM    ASCII       PEDS        1.60        
  -1
PEIPRO.SP
96/10/27
13:40:40.00
96/10/27
13:42:50.00
*.dat

320.000000
1









4444

SCAN
1
1


0.1

2.00
MANUAL



VIS




































#HDR
-1
-1
#GR
NM
A
0.00000011920928955078
0.0
700.000000
2.000000
191
8
0.402904
0.054330
#DATA
700.000000	0.054438 
698.000000	0.054330 
696.000000	0.054604 
694.000000	0.054740 
692.000000	0.054516 
690.000000	0.054564 
688.000000	0.054624 
686.000000	0.055005 
684.000000	0.054959 
682.000000	0.054529 
680.000000	0.054887 
678.000000	0.054776 
676.000000	0.054774 
674.000000	0.054816 
672.000000	0.054604 
670.000000	0.054772 
668.000000	0.055143 
666.000000	0.055041 
664.000000	0.054870 
662.000000	0.055081 
660.000000	0.055068 
658.000000	0.055190 
656.000000	0.055382 
654.000000	0.055350 
652.000000	0.055368 
650.000000	0.055409 
648.000000	0.055597 
646.000000	0.055732 
644.000000	0.055758 
642.000000	0.055880 
640.000000	0.055830 
638.000000	0.055719 
636.000000	0.055602 
634.000000	0.055679 
632.000000	0.055690 
630.000000	0.055779 
628.000000	0.055741 
626.000000	0.056008 
624.000000	0.055907 
622.000000	0.055755 
620.000000	0.055804 
618.000000	0.056243 
616.000000	0.056034 
614.000000	0.055747 
612.000000	0.056088 
610.000000	0.056110 
608.000000	0.056010 
606.000000	0.055932 
604.000000	0.056246 
602.000000	0.056140 
600.000000	0.056426 
598.000000	0.056442 
596.000000	0.056106 
594.000000	0.056196 
592.000000	0.056282 
590.000000	0.056120 
588.000000	0.056140 
586.000000	0.056331 
584.000000	0.056192 
582.000000	0.056023 
580.000000	0.056127 
578.000000	0.055942 
576.000000	0.056052 
574.000000	0.056303 
572.000000	0.056229 
570.000000	0.055890 
568.000000	0.056029 
566.000000	0.056031 
564.000000	0.056037 
562.000000	0.056324 
560.000000	0.056184 
558.000000	0.056130 
556.000000	0.055924 
554.000000	0.056049 
552.000000	0.056162 
550.000000	0.055958 
548.000000	0.055919 
546.000000	0.056152 
544.000000	0.056110 
542.000000	0.055780 
540.000000	0.056003 
538.000000	0.056022 
536.000000	0.056029 
534.000000	0.055923 
532.000000	0.055899 
530.000000	0.056055 
528.000000	0.056122 
526.000000	0.055889 
524.000000	0.055677 
522.000000	0.055963 
520.000000	0.056081 
518.000000	0.055977 
516.000000	0.056136 
514.000000	0.056284 
512.000000	0.056301 
510.000000	0.056448 
508.000000	0.056704 
506.000000	0.056734 
504.000000	0.056491 
502.000000	0.056515 
500.000000	0.056687 
498.000000	0.056732 
496.000000	0.056849 
494.000000	0.056934 
492.000000	0.056958 
490.000000	0.057016 
488.000000	0.057079 
486.000000	0.057116 
484.000000	0.057257 
482.000000	0.057480 
480.000000	0.057526 
478.000000	0.057353 
476.000000	0.057262 
474.000000	0.057586 
472.000000	0.057851 
470.000000	0.057809 
468.000000	0.057786 
466.000000	0.057945 
464.000000	0.058181 
462.000000	0.058283 
460.000000	0.058452 
458.000000	0.058563 
456.000000	0.058572 
454.000000	0.058704 
452.000000	0.058951 
450.000000	0.058920 
448.000000	0.059013 
446.000000	0.059222 
444.000000	0.059241 
442.000000	0.059441 
440.000000	0.059668 
438.000000	0.059780 
436.000000	0.060027 
434.000000	0.060266 
432.000000	0.060311 
430.000000	0.060516 
428.000000	0.060743 
426.000000	0.060973 
424.000000	0.061255 
422.000000	0.061310 
420.000000	0.061448 
418.000000	0.061671 
416.000000	0.061908 
414.000000	0.062163 
412.000000	0.062442 
410.000000	0.062848 
408.000000	0.063109 
406.000000	0.063394 
404.000000	0.063833 
402.000000	0.064284 
400.000000	0.064854 
398.000000	0.065254 
396.000000	0.065818 
394.000000	0.066420 
392.000000	0.067017 
390.000000	0.067959 
388.000000	0.068934 
386.000000	0.070043 
384.000000	0.071443 
382.000000	0.073226 
380.000000	0.075611 
378.000000	0.078918 
376.000000	0.084541 
374.000000	0.092731 
372.000000	0.104126 
370.000000	0.118966 
368.000000	0.134332 
366.000000	0.148032 
364.000000	0.160193 
362.000000	0.170964 
360.000000	0.179810 
358.000000	0.186867 
356.000000	0.192777 
354.000000	0.197563 
352.000000	0.202352 
350.000000	0.207104 
348.000000	0.211309 
346.000000	0.216343 
344.000000	0.221660 
342.000000	0.227917 
340.000000	0.235738 
338.000000	0.245264 
336.000000	0.257232 
334.000000	0.271489 
332.000000	0.287296 
330.000000	0.303389 
328.000000	0.320023 
326.000000	0.336522 
324.000000	0.355189 
322.000000	0.377278 
320.000000	0.402904 

