PE UV                   SPECTRUM    ASCII       PEDS        1.60        
  -1
PEITOL.SP
96/10/27
13:06:24.00
96/10/27
13:09:02.00
*.dat

320.000000
1









4444

SCAN
1
1


0.1

2.00
MANUAL



VIS




































#HDR
-1
-1
#GR
NM
A
0.00000011920928955078
0.0
700.000000
2.000000
191
8
0.195959
0.051789
#DATA
700.000000	0.052130 
698.000000	0.051991 
696.000000	0.051894 
694.000000	0.051934 
692.000000	0.051861 
690.000000	0.051979 
688.000000	0.052054 
686.000000	0.052076 
684.000000	0.051916 
682.000000	0.051789 
680.000000	0.052082 
678.000000	0.052076 
676.000000	0.052061 
674.000000	0.052354 
672.000000	0.052341 
670.000000	0.052238 
668.000000	0.052352 
666.000000	0.052155 
664.000000	0.052084 
662.000000	0.052439 
660.000000	0.052473 
658.000000	0.052196 
656.000000	0.052520 
654.000000	0.052388 
652.000000	0.052178 
650.000000	0.052333 
648.000000	0.052641 
646.000000	0.052748 
644.000000	0.052573 
642.000000	0.052545 
640.000000	0.052604 
638.000000	0.052782 
636.000000	0.052749 
634.000000	0.052957 
632.000000	0.053225 
630.000000	0.053020 
628.000000	0.052980 
626.000000	0.052946 
624.000000	0.052866 
622.000000	0.052910 
620.000000	0.052966 
618.000000	0.053276 
616.000000	0.053058 
614.000000	0.053029 
612.000000	0.053465 
610.000000	0.053758 
608.000000	0.053707 
606.000000	0.053621 
604.000000	0.053781 
602.000000	0.053430 
600.000000	0.053513 
598.000000	0.053714 
596.000000	0.053497 
594.000000	0.053557 
592.000000	0.053734 
590.000000	0.053727 
588.000000	0.053806 
586.000000	0.053933 
584.000000	0.053942 
582.000000	0.054036 
580.000000	0.054346 
578.000000	0.054046 
576.000000	0.053983 
574.000000	0.054147 
572.000000	0.054301 
570.000000	0.054211 
568.000000	0.054450 
566.000000	0.054478 
564.000000	0.054342 
562.000000	0.054577 
560.000000	0.054631 
558.000000	0.055004 
556.000000	0.054839 
554.000000	0.054831 
552.000000	0.054877 
550.000000	0.054879 
548.000000	0.055073 
546.000000	0.055318 
544.000000	0.055394 
542.000000	0.055320 
540.000000	0.055554 
538.000000	0.055596 
536.000000	0.055725 
534.000000	0.055933 
532.000000	0.055991 
530.000000	0.055890 
528.000000	0.055970 
526.000000	0.055988 
524.000000	0.056022 
522.000000	0.056386 
520.000000	0.056489 
518.000000	0.056421 
516.000000	0.056553 
514.000000	0.056700 
512.000000	0.056771 
510.000000	0.057076 
508.000000	0.057441 
506.000000	0.057615 
504.000000	0.057524 
502.000000	0.057640 
500.000000	0.057881 
498.000000	0.057903 
496.000000	0.058003 
494.000000	0.058110 
492.000000	0.058231 
490.000000	0.058522 
488.000000	0.058827 
486.000000	0.058941 
484.000000	0.058982 
482.000000	0.059139 
480.000000	0.059172 
478.000000	0.059224 
476.000000	0.059422 
474.000000	0.059718 
472.000000	0.059895 
470.000000	0.059880 
468.000000	0.059915 
466.000000	0.060052 
464.000000	0.060215 
462.000000	0.060428 
460.000000	0.060776 
458.000000	0.061068 
456.000000	0.061151 
454.000000	0.061382 
452.000000	0.061607 
450.000000	0.061587 
448.000000	0.061903 
446.000000	0.062329 
444.000000	0.062457 
442.000000	0.062505 
440.000000	0.062630 
438.000000	0.062683 
436.000000	0.062901 
434.000000	0.063289 
432.000000	0.063560 
430.000000	0.063732 
428.000000	0.063758 
426.000000	0.063818 
424.000000	0.064068 
422.000000	0.064306 
420.000000	0.064608 
418.000000	0.064914 
416.000000	0.065092 
414.000000	0.065186 
412.000000	0.065163 
410.000000	0.065481 
408.000000	0.065843 
406.000000	0.066132 
404.000000	0.066315 
402.000000	0.066433 
400.000000	0.066806 
398.000000	0.067114 
396.000000	0.067499 
394.000000	0.067752 
392.000000	0.068203 
390.000000	0.068845 
388.000000	0.069279 
386.000000	0.069855 
384.000000	0.070570 
382.000000	0.071158 
380.000000	0.071582 
378.000000	0.071869 
376.000000	0.072215 
374.000000	0.072593 
372.000000	0.072511 
370.000000	0.073164 
368.000000	0.074206 
366.000000	0.074963 
364.000000	0.075865 
362.000000	0.076787 
360.000000	0.077758 
358.000000	0.079140 
356.000000	0.080645 
354.000000	0.082248 
352.000000	0.084627 
350.000000	0.087351 
348.000000	0.090066 
346.000000	0.092880 
344.000000	0.095664 
342.000000	0.099133 
340.000000	0.103891 
338.000000	0.109087 
336.000000	0.114422 
334.000000	0.120191 
332.000000	0.126871 
330.000000	0.134753 
328.000000	0.144401 
326.000000	0.154023 
324.000000	0.165977 
322.000000	0.179701 
320.000000	0.195959 

